  Time (min)    V neg      V pos       Cur (A/m2)    Temp (C)   Heat Gen (W/m3)
   0.000000    0.182736    4.223399     20.0000     24.850000   0.0000000E+00
   0.000333    0.182747    4.223295     20.0000     24.850000   1.9665856E+03
   0.000667    0.182755    4.223232     20.0000     24.850000   1.9727106E+03
   0.001033    0.182762    4.223180     20.0000     24.850000   1.9778172E+03
   0.001437    0.182769    4.223133     20.0000     24.850000   1.9824682E+03
   0.001880    0.182777    4.223089     20.0000     24.850000   1.9868997E+03
   0.002368    0.182784    4.223045     20.0000     24.850000   1.9912346E+03
   0.002905    0.182792    4.223001     20.0000     24.850000   1.9955488E+03
   0.003496    0.182800    4.222958     20.0000     24.850000   1.9998932E+03
   0.004145    0.182808    4.222913     20.0000     24.850000   2.0043067E+03
   0.004860    0.182816    4.222868     20.0000     24.850000   2.0088195E+03
   0.005646    0.182825    4.222821     20.0000     24.850000   2.0134574E+03
   0.006510    0.182835    4.222772     20.0000     24.850000   2.0182428E+03
   0.007461    0.182845    4.222722     20.0000     24.850000   2.0231964E+03
   0.008508    0.182855    4.222669     20.0000     24.850000   2.0283372E+03
   0.009658    0.182866    4.222615     20.0000     24.850000   2.0336839E+03
   0.010924    0.182878    4.222557     20.0000     24.850000   2.0392541E+03
   0.012317    0.182890    4.222498     20.0000     24.850000   2.0450656E+03
   0.013848    0.182902    4.222435     20.0000     24.850000   2.0511359E+03
   0.015533    0.182916    4.222369     20.0000     24.850000   2.0574828E+03
   0.017386    0.182930    4.222299     20.0000     24.850000   2.0641241E+03
   0.019425    0.182944    4.222226     20.0000     24.850000   2.0710782E+03
   0.021667    0.182960    4.222149     20.0000     24.850000   2.0783633E+03
   0.024134    0.182976    4.222067     20.0000     24.850000   2.0859987E+03
   0.026848    0.182993    4.221981     20.0000     24.850000   2.0940037E+03
   0.029832    0.183011    4.221891     20.0000     24.850000   2.1023983E+03
   0.033116    0.183030    4.221795     20.0000     24.850000   2.1112028E+03
   0.036727    0.183050    4.221693     20.0000     24.850000   2.1204383E+03
   0.040700    0.183071    4.221586     20.0000     24.850000   2.1301262E+03
   0.045070    0.183092    4.221473     20.0000     24.850000   2.1402886E+03
   0.049877    0.183115    4.221353     20.0000     24.850000   2.1509478E+03
   0.055165    0.183140    4.221227     20.0000     24.850000   2.1621270E+03
   0.060981    0.183165    4.221093     20.0000     24.850000   2.1738494E+03
   0.067379    0.183192    4.220951     20.0000     24.850000   2.1861388E+03
   0.074417    0.183220    4.220801     20.0000     24.850000   2.1990189E+03
   0.082159    0.183251    4.220642     20.0000     24.850000   2.2125141E+03
   0.090675    0.183282    4.220475     20.0000     24.850000   2.2266480E+03
   0.100042    0.183316    4.220298     20.0000     24.850000   2.2414444E+03
   0.110346    0.183352    4.220111     20.0000     24.850000   2.2569259E+03
   0.121681    0.183391    4.219914     20.0000     24.850000   2.2731143E+03
   0.134149    0.183432    4.219705     20.0000     24.850000   2.2900289E+03
   0.147864    0.183476    4.219486     20.0000     24.850000   2.3076869E+03
   0.162951    0.183523    4.219254     20.0000     24.850000   2.3261011E+03
   0.179546    0.183574    4.219011     20.0000     24.850000   2.3452798E+03
   0.197800    0.183628    4.218755     20.0000     24.850000   2.3652245E+03
   0.217880    0.183687    4.218485     20.0000     24.850000   2.3859292E+03
   0.239968    0.183750    4.218203     20.0000     24.850000   2.4073784E+03
   0.264265    0.183818    4.217907     20.0000     24.850000   2.4295461E+03
   0.290992    0.183891    4.217598     20.0000     24.850000   2.4523950E+03
   0.320391    0.183970    4.217274     20.0000     24.850000   2.4758755E+03
   0.352730    0.184054    4.216937     20.0000     24.850000   2.4999263E+03
   0.388303    0.184145    4.216586     20.0000     24.850000   2.5244746E+03
   0.427433    0.184243    4.216221     20.0000     24.850000   2.5494379E+03
   0.470476    0.184348    4.215842     20.0000     24.850000   2.5747267E+03
   0.517824    0.184461    4.215449     20.0000     24.850000   2.6002473E+03
   0.569906    0.184581    4.215043     20.0000     24.850000   2.6259073E+03
   0.627197    0.184710    4.214621     20.0000     24.850000   2.6516210E+03
   0.690217    0.184849    4.214185     20.0000     24.850000   2.6773188E+03
   0.759539    0.184997    4.213733     20.0000     24.850000   2.7029565E+03
   0.835792    0.185155    4.213263     20.0000     24.850000   2.7285310E+03
   0.919672    0.185323    4.212773     20.0000     24.850000   2.7540985E+03
   1.011939    0.185503    4.212259     20.0000     24.850000   2.7798007E+03
   1.113433    0.185695    4.211718     20.0000     24.850000   2.8059010E+03
   1.225076    0.185899    4.211141     20.0000     24.850000   2.8328348E+03
   1.347884    0.186117    4.210519     20.0000     24.850000   2.8612816E+03
   1.482972    0.186350    4.209838     20.0000     24.850000   2.8922683E+03
   1.631569    0.186599    4.209078     20.0000     24.850000   2.9273124E+03
   1.795026    0.186865    4.208209     20.0000     24.850000   2.9686208E+03
   1.974829    0.187151    4.207191     20.0000     24.850000   3.0193518E+03
   2.172611    0.187459    4.205963     20.0000     24.850000   3.0839694E+03
   2.390173    0.187791    4.204437     20.0000     24.850000   3.1687418E+03
   2.629490    0.188151    4.202483     20.0000     24.850000   3.2824727E+03
   2.892739    0.188543    4.199908     20.0000     24.850000   3.4373799E+03
   3.182313    0.188974    4.196433     20.0000     24.850000   3.6488837E+03
   3.500844    0.189451    4.191727     20.0000     24.850000   3.9291460E+03
   3.851228    0.189983    4.185602     20.0000     24.850000   4.2631300E+03
   4.236651    0.190584    4.178432     20.0000     24.850000   4.5658123E+03
   4.660616    0.191271    4.171361     20.0000     24.850000   4.6752556E+03
   5.126978    0.192073    4.165650     20.0000     24.850000   4.4746389E+03
   5.639976    0.193034    4.161722     20.0000     24.850000   4.0678422E+03
   6.152974    0.194105    4.159301     20.0000     24.850000   3.7335165E+03
   6.665971    0.195314    4.157539     20.0000     24.850000   3.5684792E+03
   7.178969    0.196679    4.155911     20.0000     24.850000   3.5456302E+03
   7.691967    0.198203    4.154106     20.0000     24.850000   3.6169151E+03
   8.204965    0.199870    4.151921     20.0000     24.850000   3.7475792E+03
   8.717963    0.201645    4.149191     20.0000     24.850000   3.9160124E+03
   9.230960    0.203478    4.145769     20.0000     24.850000   4.1076757E+03
   9.743958    0.205311    4.141516     20.0000     24.850000   4.3105008E+03
  10.256956    0.207086    4.136324     20.0000     24.850000   4.5122019E+03
  10.769954    0.208751    4.130149     20.0000     24.850000   4.6990288E+03
  11.282952    0.210267    4.123038     20.0000     24.850000   4.8557284E+03
  11.795949    0.211612    4.115146     20.0000     24.850000   4.9667077E+03
  12.308947    0.212780    4.106726     20.0000     24.850000   5.0183542E+03
  12.821945    0.213782    4.098105     20.0000     24.850000   5.0020281E+03
  13.334943    0.214638    4.089628     20.0000     24.850000   4.9166143E+03
  13.847941    0.215374    4.081609     20.0000     24.850000   4.7694263E+03
  14.360938    0.216012    4.074286     20.0000     24.850000   4.5749727E+03
  14.873936    0.216574    4.067800     20.0000     24.850000   4.3520316E+03
  15.386934    0.217074    4.062195     20.0000     24.850000   4.1200368E+03
  15.899932    0.217524    4.057433     20.0000     24.850000   3.8958893E+03
  16.412930    0.217930    4.053422     20.0000     24.850000   3.6919574E+03
  16.925927    0.218296    4.050038     20.0000     24.850000   3.5154519E+03
  17.438925    0.218623    4.047152     20.0000     24.850000   3.3688820E+03
  17.951923    0.218911    4.044637     20.0000     24.850000   3.2511240E+03
  18.464921    0.219156    4.042385     20.0000     24.850000   3.1587992E+03
  18.977919    0.219361    4.040305     20.0000     24.850000   3.0881577E+03
  19.490916    0.219540    4.038323     20.0000     24.850000   3.0370983E+03
  20.003914    0.219716    4.036386     20.0000     24.850000   3.0045939E+03
  20.516912    0.219901    4.034450     20.0000     24.850000   2.9885935E+03
  21.029910    0.220100    4.032486     20.0000     24.850000   2.9860127E+03
  21.542908    0.220311    4.030471     20.0000     24.850000   2.9936956E+03
  22.055905    0.220533    4.028392     20.0000     24.850000   3.0089086E+03
  22.568903    0.220765    4.026242     20.0000     24.850000   3.0294341E+03
  23.081901    0.221004    4.024018     20.0000     24.850000   3.0535246E+03
  23.594899    0.221251    4.021720     20.0000     24.850000   3.0798292E+03
  24.107897    0.221505    4.019351     20.0000     24.850000   3.1073242E+03
  24.620894    0.221765    4.016915     20.0000     24.850000   3.1352520E+03
  25.133892    0.222032    4.014419     20.0000     24.850000   3.1630692E+03
  25.646890    0.222304    4.011869     20.0000     24.850000   3.1904026E+03
  26.159888    0.222583    4.009272     20.0000     24.850000   3.2170118E+03
  26.672886    0.222867    4.006635     20.0000     24.850000   3.2427581E+03
  27.185883    0.223157    4.003967     20.0000     24.850000   3.2675793E+03
  27.698881    0.223452    4.001275     20.0000     24.850000   3.2914686E+03
  28.211879    0.223753    3.998566     20.0000     24.850000   3.3144593E+03
  28.724877    0.224060    3.995846     20.0000     24.850000   3.3366118E+03
  29.237875    0.224371    3.993123     20.0000     24.850000   3.3580045E+03
  29.750872    0.224688    3.990402     20.0000     24.850000   3.3787264E+03
  30.263870    0.225010    3.987689     20.0000     24.850000   3.3988725E+03
  30.776868    0.225338    3.984990     20.0000     24.850000   3.4185400E+03
  31.289866    0.225670    3.982308     20.0000     24.850000   3.4378260E+03
  31.802864    0.226008    3.979649     20.0000     24.850000   3.4568256E+03
  32.315861    0.226352    3.977016     20.0000     24.850000   3.4756316E+03
  32.828859    0.226700    3.974413     20.0000     24.850000   3.4943339E+03
  33.341857    0.227055    3.971843     20.0000     24.850000   3.5130202E+03
  33.854855    0.227415    3.969309     20.0000     24.850000   3.5317763E+03
  34.367853    0.227781    3.966813     20.0000     24.850000   3.5506891E+03
  34.880850    0.228153    3.964357     20.0000     24.850000   3.5698486E+03
  35.393848    0.228533    3.961943     20.0000     24.850000   3.5893553E+03
  35.906846    0.228921    3.959574     20.0000     24.850000   3.6093303E+03
  36.419844    0.229319    3.957249     20.0000     24.850000   3.6299389E+03
  36.932842    0.229731    3.954970     20.0000     24.850000   3.6514384E+03
  37.445839    0.230164    3.952738     20.0000     24.850000   3.6742823E+03
  37.958837    0.230635    3.950554     20.0000     24.850000   3.6992954E+03
  38.471835    0.231175    3.948417     20.0000     24.850000   3.7277076E+03
  38.984833    0.231825    3.946330     20.0000     24.850000   3.7604567E+03
  39.497831    0.232618    3.944292     20.0000     24.850000   3.7973076E+03
  40.010828    0.233565    3.942305     20.0000     24.850000   3.8372195E+03
  40.523826    0.234669    3.940370     20.0000     24.850000   3.8791334E+03
  41.036824    0.235927    3.938485     20.0000     24.850000   3.9221716E+03
  41.549822    0.237331    3.936649     20.0000     24.850000   3.9655678E+03
  42.062820    0.238875    3.934860     20.0000     24.850000   4.0086307E+03
  42.575817    0.240549    3.933119     20.0000     24.850000   4.0507477E+03
  43.088815    0.242346    3.931423     20.0000     24.850000   4.0913916E+03
  43.601813    0.244256    3.929773     20.0000     24.850000   4.1301207E+03
  44.114811    0.246270    3.928167     20.0000     24.850000   4.1665719E+03
  44.627809    0.248380    3.926605     20.0000     24.850000   4.2004530E+03
  45.140806    0.250574    3.925086     20.0000     24.850000   4.2315358E+03
  45.653804    0.252845    3.923609     20.0000     24.850000   4.2596532E+03
  46.166802    0.255183    3.922174     20.0000     24.850000   4.2847004E+03
  46.679800    0.257579    3.920779     20.0000     24.850000   4.3066417E+03
  47.192798    0.260026    3.919423     20.0000     24.850000   4.3255243E+03
  47.705795    0.262516    3.918107     20.0000     24.850000   4.3414996E+03
  48.218793    0.265044    3.916828     20.0000     24.850000   4.3548535E+03
  48.731791    0.267605    3.915586     20.0000     24.850000   4.3660457E+03
  49.244789    0.270199    3.914381     20.0000     24.850000   4.3757532E+03
  49.757787    0.272828    3.913210     20.0000     24.850000   4.3849092E+03
  50.270784    0.275499    3.912074     20.0000     24.850000   4.3947163E+03
  50.783782    0.278220    3.910970     20.0000     24.850000   4.4066035E+03
  51.296780    0.281007    3.909900     20.0000     24.850000   4.4220812E+03
  51.809778    0.283872    3.908860     20.0000     24.850000   4.4424333E+03
  52.322776    0.286824    3.907851     20.0000     24.850000   4.4681516E+03
  52.835773    0.289857    3.906871     20.0000     24.850000   4.4979960E+03
  53.348771    0.292936    3.905920     20.0000     24.850000   4.5276440E+03
  53.861769    0.295978    3.904997     20.0000     24.850000   4.5482018E+03
  54.374767    0.298851    3.904102     20.0000     24.850000   4.5452737E+03
  54.887765    0.301377    3.903233     20.0000     24.850000   4.4991482E+03
  55.400762    0.303365    3.902390     20.0000     24.850000   4.3865319E+03
  55.913760    0.304781    3.901574     20.0000     24.850000   4.2046224E+03
  56.426758    0.305889    3.900789     20.0000     24.850000   4.0073258E+03
  56.939756    0.306878    3.900033     20.0000     24.850000   3.8350819E+03
  57.452754    0.307808    3.899295     20.0000     24.850000   3.6977924E+03
  57.965751    0.308702    3.898573     20.0000     24.850000   3.5947527E+03
  58.478749    0.309574    3.897866     20.0000     24.850000   3.5222251E+03
  58.991747    0.310436    3.897175     20.0000     24.850000   3.4760703E+03
  59.504745    0.311304    3.896499     20.0000     24.850000   3.4526932E+03
  60.000000    0.312165    3.895862     20.0000     24.850000   3.4495556E+03
